Time,Drive Distance,Drive Velocity,Elevator Height,Elevator State,Intake LeftClawSensor,Intake RightClawSensor,Intake State,Current 0,Current 1,Current 2,Current 3,Current 4,Current 5,Current 6,Current 7,Current 8,Current 9,Current 10,Current 11,Current 12,Current 13,Current 14,Current 15
107.919779,5.45415391248228E-4,0.0,0.5400922,6.0,3.4265133210000003,3.6730953270000004,2.0,0.0,0.0,0.0,0.0,0.0,0.0,0.0,0.0,0.0,0.0,0.0,0.0,0.0,0.0,0.0,0.0
108.020125,0.0,0.0,0.5400922,6.0,3.4277340240000003,3.6730953270000004,2.0,0.0,0.0,0.0,0.0,0.0,0.0,22.375,0.0,0.0,0.0,0.0,0.0,0.0,0.0,0.0,0.0
108.120311,0.0,0.0,0.5400922,6.0,3.4265133210000003,3.6791988420000004,2.0,0.0,0.0,0.0,0.0,0.0,0.0,0.0,0.0,0.0,0.0,0.0,0.0,0.0,0.0,0.0,0.0
108.220991,0.0,0.0,0.5400922,6.0,3.40576137,3.6743160300000004,2.0,0.0,0.0,0.0,0.0,0.0,0.0,0.0,0.0,0.0,0.0,0.0,0.0,0.0,0.0,0.0,0.0
108.320595,0.007635815477475192,0.08327019681843453,0.5400922,6.0,3.408202776,3.6730953270000004,2.0,0.0,0.0,0.0,0.0,0.0,0.0,0.0,0.0,0.0,0.0,0.0,0.0,0.0,0.0,0.0,0.0
108.420927,0.022362031041177347,0.16496992470317423,0.5400922,6.0,3.398437152,3.6767574360000004,2.0,0.0,0.0,0.0,0.0,0.0,0.0,0.0,0.0,0.0,0.0,0.0,0.0,0.0,0.0,0.0,0.0
108.521315,0.045814892864851145,0.29739618344949126,0.5400922,6.0,3.398437152,3.753661725,2.0,0.0,0.0,0.0,0.0,0.0,0.0,0.0,0.0,0.0,0.0,0.0,0.0,0.0,0.0,0.0,0.0
108.621392,0.08672104720846824,0.5021367764470062,0.5400922,6.0,3.399657855,3.6755367330000004,2.0,0.0,0.0,0.0,0.0,0.0,0.0,0.0,0.0,0.0,0.0,0.0,0.0,0.0,0.0,0.0,0.0
108.722059,0.15326172494075208,0.7973523019076438,0.5400922,6.0,3.399657855,3.670653921,2.0,0.0,0.0,0.0,0.0,0.0,0.0,0.0,0.0,0.0,0.0,0.0,0.0,2.125,0.0,0.0,0.0
108.822072,0.24816400301794372,1.1084020932174268,0.5400922,6.0,3.399657855,3.6804195450000003,2.0,0.0,2.25,0.0,0.0,0.0,0.0,0.0,0.0,0.0,0.0,0.0,0.0,2.375,0.0,2.625,0.0
108.921773,0.3741549583962844,1.4381064096370628,0.5400922,6.0,3.395995746,3.6743160300000004,2.0,0.0,2.375,0.0,0.0,0.0,0.0,0.0,0.0,0.0,0.0,0.0,0.0,3.0,3.5,3.25,0.0
109.0216,0.5372341603795046,1.7335835397609545,0.5400922,6.0,3.400878558,3.6755367330000004,2.0,0.0,0.0,0.0,0.0,0.0,0.0,0.0,0.0,0.0,0.0,0.0,0.0,3.375,4.25,4.0,0.0
109.121825,0.7352199474026113,2.1761984542068573,0.5400922,6.0,3.389892231,3.6779781390000004,2.0,0.0,0.0,0.0,0.0,0.0,0.0,0.0,0.0,0.0,0.0,0.0,0.0,4.375,5.125,4.875,0.0
109.22164,0.9670214886831082,2.552269782293621,0.5400922,6.0,3.398437152,3.6755367330000004,2.0,0.0,0.0,0.0,0.0,0.0,0.0,0.0,0.0,0.0,0.0,0.0,0.0,4.875,5.875,5.5,0.0
109.321508,1.2353658611772365,2.885915584317134,0.5400922,6.0,3.398437152,3.753661725,2.0,0.0,0.0,0.0,0.0,0.0,0.0,0.0,0.0,0.0,0.0,0.0,0.0,5.625,6.75,5.625,0.0
109.422057,1.5418893110587404,3.2377857883576215,0.5400922,6.0,3.399657855,3.666991812,2.0,0.0,0.0,0.0,0.0,0.0,0.0,0.0,0.0,0.0,0.0,0.0,0.0,6.25,7.25,6.5,0.0
109.521841,1.8800468536326418,3.6954910182258134,0.5400922,6.0,3.395995746,3.669433218,2.0,0.0,0.0,0.0,0.0,0.0,0.0,0.0,0.0,0.0,0.0,0.0,0.0,6.75,8.125,7.875,0.0
109.621654,2.256383473593919,4.032481105812427,0.5400922,6.0,3.395995746,3.6767574360000004,2.0,0.0,0.0,0.0,0.0,0.0,0.0,0.0,0.0,0.0,0.0,0.0,0.0,7.25,8.125,7.875,0.0
109.721469,2.6534458784226294,4.06752153670435,0.54,6.0,3.4790035500000003,3.657226188,2.0,0.0,0.0,0.0,0.0,0.0,0.0,0.0,0.0,0.0,0.0,0.0,0.0,6.625,7.625,7.125,0.0
109.82148,3.0635982526412966,4.265259312002066,0.5400922,6.0,3.3728023890000003,3.6730953270000004,2.0,0.0,0.0,0.0,0.0,0.0,0.0,0.0,0.0,0.0,0.0,0.0,0.0,4.25,5.0,4.875,0.0
109.922528,3.4890222578149146,4.169738735079816,0.5400922,6.0,3.395995746,3.6755367330000004,2.0,0.0,0.0,0.0,0.0,0.0,0.0,0.0,0.0,0.0,0.0,0.0,0.0,4.0,4.875,4.5,0.0
110.023074,3.914446262988532,4.421771189609142,0.5400922,6.0,3.4765621440000003,3.6730953270000004,2.0,0.0,0.0,0.0,0.0,0.0,0.0,0.0,0.0,0.0,0.0,0.0,0.0,3.5,4.125,4.25,0.0
110.12295,4.34586983746588,4.289427910293966,0.5400922,6.0,3.392333637,3.6767574360000004,2.0,0.0,0.0,0.0,0.0,0.0,0.0,0.0,0.0,0.0,0.0,0.0,0.0,3.125,3.75,3.75,0.0
110.223219,4.773475504204491,4.2011743911986414,0.5400922,6.0,3.382568013,3.6743160300000004,2.0,0.0,0.0,0.0,0.0,0.0,0.0,0.0,0.0,0.0,0.0,0.0,0.0,2.875,3.375,3.75,0.0
110.323375,5.203262832508095,4.4451854489143905,0.5400922,6.0,3.386230122,3.662109,2.0,0.0,0.0,0.0,0.0,0.0,0.0,0.0,0.0,0.0,0.0,0.0,0.0,2.875,3.25,3.5,0.0
110.423477,5.641231391680423,4.372368265909934,0.5400922,6.0,3.395995746,3.6730953270000004,2.0,0.0,0.0,0.0,0.0,0.0,0.0,0.0,0.0,0.0,0.0,0.0,0.0,2.125,0.0,2.75,0.0
110.523532,6.077018289287756,4.364068977143878,0.5400922,6.0,3.383788716,3.6730953270000004,2.0,0.0,0.0,0.0,0.0,0.0,0.0,0.0,0.0,0.0,0.0,0.0,0.0,0.0,0.0,2.625,0.0
110.623911,6.509532694547602,4.308038909637332,0.5400922,6.0,3.3776852010000002,3.7426753980000003,2.0,0.0,0.0,0.0,0.0,0.0,0.0,0.0,0.0,0.0,0.0,0.0,0.0,0.0,0.0,0.0,0.0
110.723802,6.940410853633701,4.4095352465161195,0.5400922,6.0,3.397216449,3.6791988420000004,2.0,0.0,2.625,0.0,0.0,0.0,0.0,0.0,0.0,0.0,0.0,0.0,0.0,0.0,0.0,0.0,0.0
110.824043,7.381651905153517,4.412942031495059,0.5400922,6.0,3.3801266070000002,3.6791988420000004,2.0,0.0,2.875,0.0,2.625,0.0,0.0,0.0,0.0,0.0,0.0,0.0,0.0,0.0,0.0,0.0,0.0
110.923745,7.814166310413362,4.234420624265799,0.5400922,6.0,3.394775043,3.6755367330000004,2.0,0.0,3.25,0.0,2.625,0.0,0.0,0.0,0.0,0.0,0.0,0.0,0.0,0.0,0.0,0.0,0.0
111.024321,8.244499054108214,4.325658734491561,0.5400922,6.0,3.395995746,3.6755367330000004,2.0,0.0,3.875,3.5,3.25,0.0,0.0,0.0,0.0,0.0,0.0,0.0,0.0,0.0,0.0,0.0,0.0
111.124383,8.675377213194313,4.284389002319315,0.5400922,6.0,3.395995746,3.6730953270000004,2.0,0.0,4.125,3.5,3.5,0.0,0.0,0.0,0.0,0.0,0.0,0.0,0.0,0.0,0.0,0.0,0.0
111.22452,9.018988909680697,1.688615989314262,0.5430426,6.0,3.24706998,3.748778913,2.0,0.0,4.75,4.0,3.625,0.0,0.0,0.0,0.0,0.0,0.0,0.0,0.0,0.0,0.0,0.0,0.0
111.324672,9.133526141842825,1.5886931334911103,0.5350212000000001,6.0,3.3728023890000003,3.618163692,2.0,0.0,8.125,5.625,5.25,0.0,0.0,0.0,0.0,0.0,0.0,0.0,0.0,5.0,5.75,5.5,0.0
111.424802,9.28951494373982,1.3509591348294585,0.5495888,6.0,3.398437152,3.671874624,2.0,0.0,6.25,4.5,4.0,0.0,0.0,0.0,0.0,0.0,0.0,0.0,0.0,2.375,3.125,3.0,0.0
111.524788,9.403506760510698,0.8922483937330288,0.5411064,6.0,3.2580563070000004,3.6401363460000002,2.0,0.0,2.625,0.0,0.0,0.0,0.0,0.0,0.0,0.0,0.0,0.0,0.0,3.875,4.375,4.25,0.0
111.625045,9.428595868508118,0.3581033048156914,0.5410142,6.0,3.347167626,3.6376949400000003,2.0,0.0,3.25,0.0,0.0,0.0,0.0,0.0,0.0,0.0,0.0,0.0,0.0,3.875,4.25,4.0,0.0
111.724827,9.416596729900656,-0.11491410164619016,0.540922,6.0,3.352050438,3.6352535340000003,2.0,0.0,3.25,0.0,0.0,0.0,0.0,0.0,0.0,0.0,0.0,0.0,0.0,3.5,4.5,4.0,0.0
111.824862,9.415505899118159,-0.07621477258701653,0.5410142,6.0,3.358153953,3.6328121280000003,2.0,0.0,3.0,0.0,0.0,0.0,0.0,0.0,0.0,0.0,0.0,0.0,0.0,2.625,3.25,2.625,0.0
111.924811,9.414960483726912,-0.05602052424293538,0.540922,6.0,3.3654781710000004,3.6376949400000003,2.0,0.0,2.625,0.0,0.0,0.0,0.0,0.0,0.0,0.0,0.0,0.0,0.0,0.0,0.0,0.0,0.0
112.024392,9.413324237553166,-0.013370443755272177,0.540922,6.0,3.359374656,3.6413570490000002,2.0,0.0,2.25,0.0,0.0,0.0,0.0,0.0,0.0,0.0,0.0,0.0,0.0,0.0,0.0,0.0,0.0
112.124494,9.410051745205678,-0.028966838283946174,0.540922,6.0,3.358153953,3.6364742370000003,2.0,0.0,0.0,0.0,0.0,0.0,0.0,0.0,0.0,0.0,0.0,0.0,0.0,0.0,0.0,0.0,0.0
112.224795,9.406779252858188,-0.034751575958871246,0.540922,6.0,3.354491844,3.643798455,2.0,0.0,0.0,0.0,0.0,0.0,0.0,0.0,0.0,0.0,0.0,0.0,0.0,0.0,0.0,0.0,0.0
112.324923,9.39968885277196,-0.08996292027944248,0.540922,6.0,3.358153953,3.643798455,2.0,0.0,0.0,0.0,0.0,0.0,0.0,0.0,0.0,0.0,0.0,0.0,0.0,0.0,0.0,0.0,0.0
112.425348,9.395325529641974,-0.05052671880145521,0.540922,6.0,3.359374656,3.6364742370000003,2.0,0.0,0.0,0.0,0.0,0.0,0.0,0.0,0.0,0.0,0.0,0.0,0.0,0.0,0.0,0.0,0.0
112.525652,9.394780114250727,-0.04184531810524608,0.540922,6.0,3.358153953,3.6376949400000003,2.0,0.0,0.0,0.0,0.0,0.0,0.0,0.0,0.0,0.0,0.0,0.0,0.0,0.0,0.0,0.0,0.0
112.625869,9.389871375729493,-0.036002217132028856,0.540922,6.0,3.3605953590000004,3.6376949400000003,2.0,0.0,0.0,0.0,0.0,0.0,0.0,0.0,0.0,0.0,0.0,0.0,0.0,0.0,0.0,0.0,0.0
112.726243,9.384962637208258,-0.05856151342285799,0.540922,6.0,3.3679195770000003,3.6376949400000003,2.0,0.0,0.0,0.0,0.0,0.0,0.0,0.0,0.0,0.0,0.0,0.0,0.0,0.0,0.0,0.0,0.0
112.826508,9.382780975643266,-0.04170955527958792,0.540922,6.0,3.44238246,3.6364742370000003,2.0,0.0,0.0,0.0,0.0,0.0,0.0,0.0,0.0,0.0,0.0,0.0,0.0,0.0,0.0,0.0,0.0
112.927237,9.382780975643266,-0.04170955527958792,0.540922,6.0,3.3605953590000004,3.6376949400000003,2.0,0.0,0.0,0.0,0.0,0.0,0.0,0.0,0.0,0.0,0.0,0.0,0.0,0.0,0.0,0.0,0.0
113.02795,9.382780975643266,-0.04170955527958792,0.540922,6.0,3.359374656,3.6376949400000003,2.0,0.0,0.0,0.0,0.0,0.0,0.0,0.0,0.0,0.0,0.0,0.0,0.0,0.0,0.0,0.0,0.0
113.12748,9.382780975643266,-0.04170955527958792,0.540922,6.0,3.358153953,3.6376949400000003,2.0,0.0,0.0,0.0,0.0,0.0,0.0,0.0,0.0,0.0,0.0,0.0,0.0,0.0,0.0,0.0,0.0
113.227961,9.382780975643266,0.0,0.540922,6.0,3.359374656,3.6376949400000003,2.0,0.0,0.0,0.0,0.0,0.0,0.0,0.0,0.0,0.0,0.0,0.0,0.0,0.0,0.0,0.0,0.0
113.327955,9.382780975643266,0.0,0.540922,6.0,3.358153953,3.718261338,2.0,0.0,0.0,0.0,0.0,0.0,0.0,0.0,0.0,0.0,0.0,0.0,0.0,0.0,0.0,0.0,0.0
113.428201,9.382780975643266,0.0,0.540922,6.0,3.3618160620000004,3.6413570490000002,2.0,0.0,0.0,0.0,0.0,0.0,0.0,0.0,0.0,0.0,0.0,0.0,0.0,0.0,0.0,0.0,0.0
113.528993,9.382780975643266,0.0,0.540922,6.0,3.359374656,3.6376949400000003,2.0,0.0,0.0,0.0,0.0,0.0,0.0,0.0,0.0,0.0,0.0,0.0,0.0,0.0,0.0,0.0,0.0
113.628927,9.382780975643266,0.0,0.540922,6.0,3.3605953590000004,3.6376949400000003,2.0,0.0,0.0,0.0,0.0,0.0,0.0,0.0,0.0,0.0,0.0,0.0,0.0,0.0,0.0,0.0,0.0
113.728638,9.382780975643266,0.0,0.540922,6.0,3.358153953,3.758544537,2.0,0.0,0.0,0.0,0.0,0.0,0.0,0.0,0.0,0.0,0.0,0.0,0.0,0.0,0.0,0.0,0.0
113.828973,9.382780975643266,0.0,0.540922,6.0,3.35693325,3.6376949400000003,2.0,0.0,0.0,0.0,0.0,0.0,0.0,0.0,0.0,0.0,0.0,0.0,0.0,0.0,0.0,0.0,0.0
113.929017,9.382780975643266,0.0,0.540922,6.0,3.358153953,3.6364742370000003,2.0,0.0,0.0,0.0,0.0,0.0,0.0,0.0,0.0,0.0,0.0,0.0,0.0,0.0,0.0,0.0,0.0
114.02928,9.382780975643266,0.0,0.540922,6.0,3.358153953,3.6425777520000002,2.0,0.0,0.0,0.0,0.0,0.0,0.0,0.0,0.0,0.0,0.0,0.0,0.0,0.0,0.0,0.0,0.0
114.1298,9.382780975643266,0.0,0.540922,6.0,3.359374656,3.6376949400000003,2.0,0.0,0.0,0.0,0.0,0.0,0.0,0.0,0.0,0.0,0.0,0.0,0.0,0.0,0.0,0.0,0.0
114.229958,9.382780975643266,0.0,0.540922,6.0,3.3105465360000004,3.6364742370000003,2.0,0.0,0.0,0.0,0.0,0.0,0.0,0.0,0.0,0.0,0.0,0.0,0.0,0.0,0.0,0.0,0.0
114.329472,9.382780975643266,0.0,0.540922,6.0,3.44238246,3.646239861,2.0,0.0,0.0,0.0,0.0,0.0,0.0,0.0,0.0,0.0,0.0,0.0,0.0,0.0,0.0,0.0,0.0
114.430106,9.382780975643266,0.0,0.540922,6.0,3.352050438,3.717040635,2.0,0.0,0.0,0.0,0.0,0.0,0.0,0.0,0.0,0.0,0.0,0.0,0.0,0.0,0.0,0.0,0.0
114.529454,9.382780975643266,0.0,0.540922,6.0,3.359374656,3.6364742370000003,2.0,0.0,0.0,0.0,0.0,0.0,0.0,0.0,0.0,0.0,0.0,0.0,0.0,0.0,0.0,0.0,0.0
114.629781,9.382780975643266,0.0,0.540922,6.0,3.358153953,3.6364742370000003,2.0,0.0,0.0,0.0,0.0,0.0,0.0,0.0,0.0,0.0,0.0,0.0,0.0,0.0,0.0,0.0,0.0
114.729966,9.382780975643266,0.0,0.540922,6.0,3.358153953,3.6389156430000003,2.0,0.0,0.0,0.0,0.0,0.0,0.0,0.0,0.0,0.0,0.0,0.0,0.0,0.0,0.0,0.0,0.0
114.829311,9.382780975643266,0.0,0.540922,6.0,3.4326168360000002,3.6364742370000003,2.0,0.0,0.0,0.0,0.0,0.0,0.0,0.0,0.0,0.0,0.0,0.0,0.0,0.0,0.0,0.0,0.0
114.92951,9.382780975643266,0.0,0.540922,6.0,3.359374656,3.6364742370000003,2.0,0.0,0.0,0.0,0.0,0.0,0.0,0.0,0.0,0.0,0.0,0.0,0.0,0.0,0.0,0.0,0.0
115.029711,9.382235560252017,0.0,0.540922,6.0,3.358153953,3.6389156430000003,2.0,0.0,0.0,0.0,0.0,0.0,0.0,0.0,0.0,0.0,0.0,0.0,0.0,0.0,0.0,0.0,0.0
115.129363,9.382235560252017,0.0,0.540922,6.0,3.358153953,3.6376949400000003,2.0,0.0,0.0,0.0,0.0,0.0,0.0,0.0,0.0,0.0,0.0,0.0,0.0,0.0,0.0,0.0,0.0
115.229316,9.382235560252017,0.0,0.540922,6.0,3.358153953,3.6364742370000003,2.0,0.0,0.0,0.0,0.0,0.0,0.0,0.0,0.0,0.0,0.0,0.0,0.0,0.0,0.0,0.0,0.0
115.32978,9.382235560252017,0.0,0.540922,6.0,3.352050438,3.6376949400000003,2.0,0.0,0.0,0.0,0.0,0.0,0.0,0.0,0.0,0.0,0.0,0.0,0.0,0.0,0.0,0.0,0.0
115.429374,9.382235560252017,0.0,0.540922,6.0,3.3605953590000004,3.6389156430000003,2.0,0.0,0.0,0.0,0.0,0.0,0.0,0.0,0.0,0.0,0.0,0.0,0.0,0.0,0.0,0.0,0.0
115.529373,9.382235560252017,0.0,0.540922,6.0,3.3618160620000004,3.6376949400000003,2.0,0.0,0.0,0.0,0.0,0.0,0.0,0.0,0.0,0.0,0.0,0.0,0.0,0.0,0.0,0.0,0.0
115.630247,9.382235560252017,0.0,0.540922,6.0,3.358153953,3.6376949400000003,2.0,0.0,0.0,0.0,0.0,0.0,0.0,0.0,0.0,0.0,0.0,0.0,0.0,0.0,0.0,0.0,0.0
115.73108,9.382235560252017,0.0,0.540922,6.0,3.3618160620000004,3.6389156430000003,2.0,0.0,0.0,0.0,0.0,0.0,0.0,0.0,0.0,0.0,0.0,0.0,0.0,0.0,0.0,0.0,0.0
115.831075,9.382235560252017,0.0,0.540922,6.0,3.358153953,3.6376949400000003,2.0,0.0,0.0,0.0,0.0,0.0,0.0,0.0,0.0,0.0,0.0,0.0,0.0,0.0,0.0,0.0,0.0
115.930719,9.382235560252017,0.0,0.540922,6.0,3.358153953,3.6376949400000003,2.0,0.0,0.0,0.0,0.0,0.0,0.0,0.0,0.0,0.0,0.0,0.0,0.0,0.0,0.0,0.0,0.0
116.030583,9.382235560252017,0.0,0.540922,6.0,3.359374656,3.719482041,2.0,0.0,0.0,0.0,0.0,0.0,0.0,0.0,0.0,0.0,0.0,0.0,0.0,0.0,0.0,0.0,0.0
116.130534,9.382235560252017,0.0,0.540922,6.0,3.359374656,3.715819932,2.0,0.0,0.0,0.0,0.0,0.0,0.0,0.0,0.0,0.0,0.0,0.0,0.0,0.0,0.0,0.0,0.0
116.230599,9.382235560252017,0.0,0.540922,6.0,3.441161757,3.643798455,2.0,0.0,0.0,0.0,0.0,0.0,0.0,0.0,0.0,0.0,0.0,0.0,0.0,0.0,0.0,0.0,0.0
116.330326,9.38169014486077,0.0,0.540922,6.0,3.3618160620000004,3.6376949400000003,2.0,0.0,0.0,0.0,0.0,0.0,0.0,0.0,0.0,0.0,0.0,0.0,0.0,0.0,0.0,0.0,0.0
116.431272,9.38169014486077,0.0,0.540922,6.0,3.359374656,3.6352535340000003,2.0,0.0,0.0,0.0,0.0,0.0,0.0,0.0,0.0,0.0,0.0,0.0,0.0,0.0,0.0,0.0,0.0
116.53193,9.38169014486077,0.0,0.540922,6.0,3.3605953590000004,3.6401363460000002,2.0,0.0,0.0,0.0,0.0,0.0,0.0,0.0,0.0,0.0,0.0,0.0,0.0,0.0,0.0,0.0,0.0
116.631768,9.38169014486077,0.0,0.540922,6.0,3.35693325,3.6376949400000003,2.0,0.0,0.0,0.0,0.0,0.0,0.0,0.0,0.0,0.0,0.0,0.0,0.0,0.0,0.0,0.0,0.0
116.731785,9.38169014486077,0.0,0.540922,6.0,3.358153953,3.6413570490000002,2.0,0.0,0.0,0.0,0.0,0.0,0.0,0.0,0.0,0.0,0.0,0.0,0.0,0.0,0.0,0.0,0.0
116.831502,9.38169014486077,0.0,0.540922,6.0,3.359374656,3.6389156430000003,2.0,0.0,0.0,0.0,0.0,0.0,0.0,0.0,0.0,0.0,0.0,0.0,0.0,0.0,0.0,0.0,0.0
116.931351,9.38169014486077,0.0,0.540922,6.0,3.382568013,3.6364742370000003,2.0,0.0,0.0,0.0,0.0,0.0,0.0,0.0,0.0,0.0,0.0,0.0,0.0,0.0,0.0,0.0,0.0
117.031945,9.38169014486077,0.0,0.540922,6.0,3.3618160620000004,3.6364742370000003,2.0,0.0,0.0,0.0,0.0,0.0,0.0,0.0,0.0,0.0,0.0,0.0,0.0,0.0,0.0,0.0,0.0
117.132091,9.38169014486077,0.0,0.540922,6.0,3.359374656,3.6389156430000003,2.0,0.0,0.0,0.0,0.0,0.0,0.0,0.0,0.0,0.0,0.0,0.0,0.0,0.0,0.0,0.0,0.0
117.231713,9.38169014486077,0.0,0.540922,6.0,3.358153953,3.6364742370000003,2.0,0.0,0.0,0.0,0.0,0.0,0.0,0.0,0.0,0.0,0.0,0.0,0.0,0.0,0.0,0.0,0.0
117.331469,9.38169014486077,0.0,0.540922,6.0,3.35693325,3.6364742370000003,2.0,0.0,0.0,0.0,0.0,0.0,0.0,0.0,0.0,0.0,0.0,0.0,0.0,0.0,0.0,0.0,0.0
117.431619,9.38169014486077,0.0,0.540922,6.0,3.35693325,3.6401363460000002,2.0,0.0,0.0,0.0,0.0,0.0,0.0,0.0,0.0,0.0,0.0,0.0,0.0,0.0,0.0,0.0,0.0
117.531302,9.38169014486077,0.0,0.540922,6.0,3.3605953590000004,3.6376949400000003,2.0,0.0,0.0,0.0,0.0,0.0,0.0,0.0,0.0,0.0,0.0,0.0,0.0,0.0,0.0,0.0,0.0
117.631535,9.38169014486077,0.0,0.5408298,6.0,3.359374656,3.6364742370000003,2.0,0.0,0.0,0.0,0.0,0.0,0.0,0.0,0.0,0.0,0.0,0.0,0.0,0.0,0.0,0.0,0.0
117.731351,9.38169014486077,0.0,0.540922,6.0,3.3630367650000004,3.6389156430000003,2.0,0.0,0.0,0.0,0.0,0.0,0.0,0.0,0.0,0.0,0.0,0.0,0.0,0.0,0.0,0.0,0.0
117.831617,9.38169014486077,0.0,0.540922,6.0,3.441161757,3.6413570490000002,2.0,0.0,0.0,0.0,0.0,0.0,0.0,0.0,0.0,0.0,0.0,0.0,0.0,0.0,0.0,0.0,0.0
117.931815,9.38169014486077,0.0,0.540922,6.0,3.35693325,3.6364742370000003,2.0,0.0,0.0,0.0,0.0,0.0,0.0,0.0,0.0,0.0,0.0,0.0,0.0,0.0,0.0,0.0,0.0
118.031601,9.38169014486077,0.0,0.540922,6.0,3.358153953,3.6389156430000003,2.0,0.0,0.0,0.0,0.0,0.0,0.0,0.0,0.0,0.0,0.0,0.0,0.0,0.0,0.0,0.0,0.0
118.131704,9.38169014486077,0.0,0.540922,6.0,3.3715816860000003,3.6401363460000002,2.0,0.0,0.0,0.0,0.0,0.0,0.0,0.0,0.0,0.0,0.0,0.0,0.0,0.0,0.0,0.0,0.0
118.231746,9.38169014486077,0.0,0.540922,6.0,3.3605953590000004,3.6376949400000003,2.0,0.0,0.0,0.0,0.0,0.0,0.0,0.0,0.0,0.0,0.0,0.0,0.0,0.0,0.0,0.0,0.0
118.332076,9.38169014486077,0.0,0.540922,6.0,3.359374656,3.6364742370000003,2.0,0.0,0.0,0.0,0.0,0.0,0.0,0.0,0.0,0.0,0.0,0.0,0.0,0.0,0.0,0.0,0.0
118.43193,9.38169014486077,0.0,0.540922,6.0,3.359374656,3.6401363460000002,2.0,0.0,0.0,0.0,0.0,0.0,0.0,0.0,0.0,0.0,0.0,0.0,0.0,0.0,0.0,0.0,0.0
118.531316,9.38169014486077,0.0,0.540922,6.0,3.358153953,3.6389156430000003,2.0,0.0,0.0,0.0,0.0,0.0,0.0,0.0,0.0,0.0,0.0,0.0,0.0,0.0,0.0,0.0,0.0
118.631452,9.38169014486077,0.0,0.540922,6.0,3.35693325,3.6376949400000003,2.0,0.0,0.0,0.0,0.0,0.0,0.0,0.0,0.0,0.0,0.0,0.0,0.0,0.0,0.0,0.0,0.0
118.73221,9.38169014486077,0.0,0.540922,6.0,3.358153953,3.6376949400000003,2.0,0.0,0.0,0.0,0.0,0.0,0.0,0.0,0.0,0.0,0.0,0.0,0.0,0.0,0.0,0.0,0.0
118.832513,9.38169014486077,0.0,0.540922,6.0,3.358153953,3.6389156430000003,2.0,0.0,0.0,0.0,0.0,0.0,0.0,0.0,0.0,0.0,0.0,0.0,0.0,0.0,0.0,0.0,0.0
118.933152,9.38169014486077,0.0,0.540922,6.0,3.359374656,3.6364742370000003,2.0,0.0,0.0,0.0,0.0,0.0,0.0,0.0,0.0,0.0,0.0,0.0,0.0,0.0,0.0,0.0,0.0
119.033968,9.38169014486077,0.0,0.540922,6.0,3.3605953590000004,3.6364742370000003,2.0,0.0,0.0,0.0,0.0,0.0,0.0,0.0,0.0,0.0,0.0,0.0,0.0,0.0,0.0,0.0,0.0
119.133728,9.38169014486077,0.0,0.540922,6.0,3.448485975,3.6413570490000002,2.0,0.0,0.0,0.0,0.0,0.0,0.0,0.0,0.0,0.0,0.0,0.0,0.0,0.0,0.0,0.0,0.0
119.233476,9.38169014486077,0.0,0.540922,6.0,3.359374656,3.6413570490000002,2.0,0.0,0.0,0.0,0.0,0.0,0.0,0.0,0.0,0.0,0.0,0.0,0.0,0.0,0.0,0.0,0.0
119.333447,9.38169014486077,0.0,0.540922,6.0,3.358153953,3.6364742370000003,2.0,0.0,0.0,0.0,0.0,0.0,0.0,0.0,0.0,0.0,0.0,0.0,0.0,0.0,0.0,0.0,0.0
119.43403,9.38169014486077,0.0,0.540922,6.0,3.35693325,3.6364742370000003,2.0,0.0,0.0,0.0,0.0,0.0,0.0,0.0,0.0,0.0,0.0,0.0,0.0,0.0,0.0,0.0,0.0
119.533825,9.38169014486077,0.0,0.540922,6.0,3.358153953,3.6376949400000003,2.0,0.0,0.0,0.0,0.0,0.0,0.0,0.0,0.0,0.0,0.0,0.0,0.0,0.0,0.0,0.0,0.0
119.633664,9.38169014486077,0.0,0.540922,6.0,3.359374656,3.6364742370000003,2.0,0.0,0.0,0.0,0.0,0.0,0.0,0.0,0.0,0.0,0.0,0.0,0.0,0.0,0.0,0.0,0.0
119.733328,9.38169014486077,0.0,0.540922,6.0,3.3605953590000004,3.6376949400000003,2.0,0.0,0.0,0.0,0.0,0.0,0.0,0.0,0.0,0.0,0.0,0.0,0.0,0.0,0.0,0.0,0.0
119.833536,9.38169014486077,0.0,0.540922,6.0,3.359374656,3.6376949400000003,2.0,0.0,0.0,0.0,0.0,0.0,0.0,0.0,0.0,0.0,0.0,0.0,0.0,0.0,0.0,0.0,0.0
119.934071,9.38169014486077,0.0,0.540922,6.0,3.3605953590000004,3.712157823,2.0,0.0,0.0,0.0,0.0,0.0,0.0,0.0,0.0,0.0,0.0,0.0,0.0,0.0,0.0,0.0,0.0
120.03419,9.38169014486077,0.0,0.540922,6.0,3.358153953,3.6364742370000003,2.0,0.0,0.0,0.0,0.0,0.0,0.0,0.0,0.0,0.0,0.0,0.0,0.0,0.0,0.0,0.0,0.0
120.1347,9.38169014486077,0.0,0.540922,6.0,3.35693325,3.6376949400000003,2.0,0.0,0.0,0.0,0.0,0.0,0.0,0.0,0.0,0.0,0.0,0.0,0.0,0.0,0.0,0.0,0.0
120.234599,9.38169014486077,0.0,0.540922,6.0,3.359374656,3.6389156430000003,2.0,0.0,0.0,0.0,0.0,0.0,0.0,0.0,0.0,0.0,0.0,0.0,0.0,0.0,0.0,0.0,0.0
120.334644,9.38169014486077,0.0,0.540922,6.0,3.35693325,3.6364742370000003,2.0,0.0,0.0,0.0,0.0,0.0,0.0,0.0,0.0,0.0,0.0,0.0,0.0,0.0,0.0,0.0,0.0
120.435122,9.38169014486077,0.0,0.540922,6.0,3.441161757,3.6401363460000002,2.0,0.0,0.0,0.0,0.0,0.0,0.0,0.0,0.0,0.0,0.0,0.0,0.0,0.0,0.0,0.0,0.0
120.53484,9.38169014486077,0.0,0.540922,6.0,3.359374656,3.6389156430000003,2.0,0.0,0.0,0.0,0.0,0.0,0.0,0.0,0.0,0.0,0.0,0.0,0.0,0.0,0.0,0.0,0.0
120.634854,9.38169014486077,0.0,0.540922,6.0,3.3630367650000004,3.6389156430000003,2.0,0.0,0.0,0.0,0.0,0.0,0.0,0.0,0.0,0.0,0.0,0.0,0.0,0.0,0.0,0.0,0.0
120.735037,9.38169014486077,0.0,0.540922,6.0,3.358153953,3.6364742370000003,2.0,0.0,0.0,0.0,0.0,0.0,0.0,0.0,0.0,0.0,0.0,0.0,0.0,0.0,0.0,0.0,0.0
